PLOT TYPE: Phi (Theta Fixed, Phi Variable)
FREQUENCY:  144
FIXED:  90 
START:  0 
STEP:  1 
POINTS:  181 
 0             8.65          8.65          11.659        3491.41       3491.41 
 1             8.64          8.65          11.655        3490.02       3489.29 
 2             8.63          8.64          11.642        3485.86       3482.92 
 3             8.6           8.62          11.62         3478.92       3472.33 
 4             8.56          8.59          11.589        3469.19       3457.52 
 5             8.52          8.56          11.55         3456.67       3438.53 
 6             8.46          8.52          11.501        3441.36       3415.37 
 7             8.39          8.48          11.443        3423.23       3388.08 
 8             8.31          8.42          11.377        3402.27       3356.72 
 9             8.22          8.36          11.3          3378.48       3321.34 
 10            8.11          8.29          11.214        3351.84       3281.98 
 11            8             8.22          11.119        3322.33       3238.73 
 12            7.87          8.13          11.013        3289.94       3191.64 
 13            7.73          8.04          10.898        3254.65       3140.82 
 14            7.58          7.94          10.771        3216.46       3086.35 
 15            7.41          7.82          10.634        3175.34       3028.32 
 16            7.23          7.7           10.486        3131.3        2966.86 
 17            7.04          7.57          10.326        3084.32       2902.07 
 18            6.84          7.43          10.154        3034.39       2834.09 
 19            6.62          7.28          9.97          2981.52       2763.05 
 20            6.38          7.11          9.773         2925.71       2689.1 
 21            6.13          6.94          9.563         2866.96       2612.39 
 22            5.86          6.75          9.338         2805.3        2533.09 
 23            5.58          6.55          9.099         2740.74       2451.37 
 24            5.27          6.33          8.845         2673.31       2367.42 
 25            4.95          6.1           8.574         2603.04       2281.43 
 26            4.61          5.85          8.286         2529.97       2193.61 
 27            4.25          5.59          7.98          2454.17       2104.16 
 28            3.87          5.3           7.655         2375.68       2013.29 
 29            3.46          5             7.31          2294.58       1921.25 
 30            3.03          4.68          6.943         2210.96       1828.25 
 31            2.57          4.34          6.553         2124.9        1734.55 
 32            2.09          3.97          6.138         2036.5        1640.38 
 33            1.57          3.57          5.696         1945.89       1545.99 
 34            1.03          3.15          5.225         1853.19       1451.64 
 35            0.44          2.69          4.722         1758.54       1357.58 
 36           -0.18          2.2           4.184         1662.1        1264.07 
 37           -0.84          1.67          3.608         1564.03       1171.37 
 38           -1.54          1.1           2.988         1464.51       1079.73 
 39           -2.3           0.48          2.32          1363.73       989.413 
 40           -3.12         -0.19          1.598         1261.89       900.67 
 41           -4            -0.93          0.812         1159.21       813.748 
 42           -4.96         -1.74         -0.046         1055.91       728.891 
 43           -6            -2.64         -0.99          952.242       646.335 
 44           -7.15         -3.64         -2.038         848.449       566.31 
 45           -8.42         -4.77         -3.213         744.796       489.04 
 46           -9.86         -6.07         -4.55          641.56        414.742 
 47           -11.49        -7.58         -6.098         539.038       343.633 
 48           -13.39        -9.39         -7.936         437.553       275.944 
 49           -15.69        -11.65        -10.202        337.491       211.946 
 50           -18.57        -14.63        -13.156        239.408       152.059 
 51           -22.45        -19.01        -17.388        144.568       97.2621 
 52           -27.94        -26.59        -24.206        60.3777       51.6844 
 53           -30.36        -25.82        -24.513        65.9752       39.1537 
 54           -25.33        -18.86        -17.975        147.112       69.8618 
 55           -21.56        -14.89        -14.042        232.318       107.811 
 56           -19.04        -12.23        -11.404        315.687       144.07 
 57           -17.25        -10.25        -9.463         396.108       177.12 
 58           -15.91        -8.71         -7.954         473.085       206.56 
 59           -14.89        -7.46         -6.741         546.285       232.27 
 60           -14.11        -6.43         -5.743         615.438       254.243 
 61           -13.5         -5.56         -4.91          680.314       272.526 
 62           -13.05        -4.82         -4.21          740.712       287.204 
 63           -12.72        -4.19         -3.617         796.452       298.39 
 64           -12.49        -3.65         -3.116         847.381       306.219 
 65           -12.36        -3.19         -2.694         893.368       310.846 
 66           -12.32        -2.8          -2.341         934.307       312.444 
 67           -12.35        -2.47         -2.049         970.118       311.201 
 68           -12.46        -2.2          -1.813         1000.74       307.318 
 69           -12.64        -1.99         -1.628         1026.16       301.008 
 70           -12.89        -1.82         -1.491         1046.35       292.491 
 71           -13.21        -1.69         -1.398         1061.36       281.998 
 72           -13.59        -1.61         -1.346         1071.23       269.761 
 73           -14.05        -1.57         -1.335         1076.03       256.02 
 74           -14.57        -1.58         -1.363         1075.87       241.012 
 75           -15.17        -1.62         -1.429         1070.88       224.977 
 76           -15.84        -1.69         -1.531         1061.22       208.148 
 77           -16.6         -1.81         -1.67          1047.06       190.756 
 78           -17.45        -1.97         -1.845         1028.59       173.027 
 79           -18.39        -2.16         -2.057         1006.05       155.174 
 80           -19.45        -2.39         -2.305         979.672       137.406 
 81           -20.63        -2.66         -2.591         949.709       119.915 
 82           -21.96        -2.97         -2.915         916.436       102.885 
 83           -23.47        -3.32         -3.278         880.14        86.4823 
 84           -25.2         -3.71         -3.683         841.116       70.8602 
 85           -27.22        -4.15         -4.131         799.672       56.1555 
 86           -29.65        -4.64         -4.626         756.12        42.4886 
 87           -32.68        -5.18         -5.169         710.779       29.9626 
 88           -36.79        -5.77         -5.765         663.968       18.6633 
 89           -43.46        -6.42         -6.418         616.009       8.65886 
 90           -999.99       -7.14         -7.136         567.223       2.33151E-09 
 91           -44.97        -7.93         -7.925         517.929       7.28015 
 92           -39.82        -8.8          -8.794         468.446       13.1657 
 93           -37.27        -9.76         -9.757         419.092       17.6577 
 94           -35.86        -10.84        -10.829        370.193       20.7745 
 95           -35.15        -12.05        -12.03         322.088       22.5519 
 96           -34.96        -13.42        -13.389        275.155       23.0455 
 97           -35.23        -14.98        -14.941        229.853       22.3355 
 98           -35.96        -16.78        -16.73         186.824       20.5403 
 99           -37.18        -18.86        -18.794        147.128       17.8529 
 100          -38.89        -21.16        -21.091        112.819       14.6496 
 101          -40.76        -23.31        -23.23         88.1445       11.816 
 102          -41.18        -24.18        -24.09         79.7598       11.2539 
 103          -39           -23.14        -23.026        89.8809       14.4787 
 104          -35.96        -21.25        -21.101        111.756       20.5394 
 105          -33.21        -19.39        -19.209        138.452       28.1892 
 106          -30.89        -17.78        -17.577        166.457       36.8246 
 107          -28.93        -16.45        -16.207        194.219       46.1552 
 108          -27.25        -15.32        -15.052        221.025       56.0101 
 109          -25.78        -14.37        -14.07         246.537       66.2694 
 110          -24.5         -13.56        -13.228        270.597       76.8398 
 111          -23.36        -12.87        -12.498        293.145       87.6444 
 112          -22.33        -12.27        -11.859        314.182       98.619 
 113          -21.41        -11.74        -11.297        333.741       109.709 
 114          -20.56        -11.28        -10.799        351.883       120.87 
 115          -19.8         -10.88        -10.354        368.681       132.064 
 116          -19.09        -10.52        -9.954         384.22        143.261 
 117          -18.44        -10.2         -9.593         398.59        154.437 
 118          -17.83        -9.92         -9.265         411.882       165.575 
 119          -17.27        -9.66         -8.965         424.184       176.661 
 120          -16.74        -9.43         -8.69          435.583       187.685 
 121          -16.25        -9.22         -8.436         446.158       198.639 
 122          -15.79        -9.03         -8.2           455.98        209.517 
 123          -15.35        -8.86         -7.981         465.112       220.311 
 124          -14.94        -8.7          -7.776         473.606       231.015 
 125          -14.55        -8.56         -7.584         481.505       241.621 
 126          -14.18        -8.43         -7.403         488.843       252.118 
 127          -13.83        -8.31         -7.234         495.642       262.491 
 128          -13.5         -8.2          -7.075         501.915       272.723 
 129          -13.18        -8.1          -6.926         507.67        282.795 
 130          -12.88        -8.01         -6.786         512.906       292.683 
 131          -12.6         -7.93         -6.656         517.615       302.359 
 132          -12.33        -7.86         -6.535         521.787       311.795 
 133          -12.08        -7.8          -6.424         525.408       320.957 
 134          -11.85        -7.75         -6.322         528.462       329.812 
 135          -11.62        -7.71         -6.23          530.933       338.325 
 136          -11.42        -7.68         -6.148         532.805       346.46 
 137          -11.23        -7.66         -6.076         534.066       354.182 
 138          -11.05        -7.65         -6.014         534.702       361.456 
 139          -10.89        -7.65         -5.963         534.707       368.251 
 140          -10.74        -7.66         -5.922         534.074       374.535 
 141          -10.61        -7.68         -5.892         532.805       380.28 
 142          -10.49        -7.71         -5.872         530.903       385.463 
 143          -10.39        -7.75         -5.863         528.378       390.064 
 144          -10.3         -7.8          -5.865         525.242       394.066 
 145          -10.23        -7.87         -5.877         521.513       397.458 
 146          -10.16        -7.94         -5.9           517.215       400.234 
 147          -10.12        -8.02         -5.933         512.374       402.392 
 148          -10.08        -8.11         -5.976         507.021       403.936 
 149          -10.06        -8.21         -6.029         501.191       404.875 
 150          -10.06        -8.32         -6.092         494.921       405.221 
 151          -10.06        -8.44         -6.164         488.253       404.994 
 152          -10.08        -8.56         -6.245         481.229       404.215 
 153          -10.11        -8.7          -6.335         473.896       402.913 
 154          -10.15        -8.84         -6.432         466.3         401.119 
 155          -10.19        -8.98         -6.537         458.49        398.868 
 156          -10.25        -9.14         -6.649         450.516       396.198 
 157          -10.32        -9.29         -6.767         442.426       393.15 
 158          -10.39        -9.46         -6.89          434.271       389.768 
 159          -10.48        -9.62         -7.018         426.1         386.098 
 160          -10.57        -9.79         -7.149         417.962       382.187 
 161          -10.66        -9.96         -7.284         409.905       378.082 
 162          -10.76        -10.13        -7.421         401.975       373.833 
 163          -10.86        -10.3         -7.558         394.217       369.488 
 164          -10.96        -10.46        -7.696         386.674       365.096 
 165          -11.07        -10.63        -7.833         379.387       360.704 
 166          -11.17        -10.79        -7.968         372.394       356.359 
 167          -11.28        -10.95        -8.099         365.732       352.105 
 168          -11.38        -11.1         -8.227         359.434       347.986 
 169          -11.48        -11.24        -8.349         353.53        344.041 
 170          -11.57        -11.38        -8.464         348.05        340.308 
 171          -11.66        -11.5         -8.573         343.019       336.823 
 172          -11.75        -11.62        -8.673         338.459       333.618 
 173          -11.82        -11.73        -8.763         334.39        330.722 
 174          -11.89        -11.82        -8.844         330.83        328.159 
 175          -11.95        -11.9         -8.913         327.793       325.953 
 176          -12           -11.97        -8.971         325.292       324.122 
 177          -12.04        -12.02        -9.016         323.337       322.682 
 178          -12.06        -12.06        -9.049         321.935       321.645 
 179          -12.08        -12.08        -9.069         321.092       321.02 
 180          -12.09        -12.09        -9.076         320.811       320.811 
PLOT TYPE: Phi (Theta Fixed, Phi Variable)
FREQUENCY:  144.5
FIXED:  90 
START:  0 
STEP:  1 
POINTS:  181 
 0             8.74          8.74          11.752        3652.25       3652.25 
 1             8.74          8.74          11.748        3650.75       3649.98 
 2             8.72          8.73          11.735        3646.24       3643.17 
 3             8.69          8.71          11.712        3638.74       3631.85 
 4             8.66          8.68          11.681        3628.22       3616.01 
 5             8.61          8.65          11.64         3614.69       3595.7 
 6             8.55          8.61          11.59         3598.13       3570.94 
 7             8.48          8.57          11.531        3578.53       3541.78 
 8             8.39          8.51          11.462        3555.89       3508.26 
 9             8.3           8.45          11.384        3530.19       3470.45 
 10            8.19          8.38          11.296        3501.42       3428.41 
 11            8.08          8.3           11.197        3469.56       3382.22 
 12            7.94          8.21          11.089        3434.61       3331.95 
 13            7.8           8.11          10.97         3396.55       3277.71 
 14            7.65          8.01          10.84         3355.36       3219.59 
 15            7.48          7.89          10.7          3311.05       3157.7 
 16            7.3           7.76          10.547        3263.6        3092.17 
 17            7.1           7.63          10.383        3213.02       3023.12 
 18            6.89          7.48          10.207        3159.29       2950.7 
 19            6.66          7.33          10.017        3102.42       2875.06 
 20            6.42          7.16          9.815         3042.43       2796.36 
 21            6.17          6.97          9.599         2979.33       2714.77 
 22            5.89          6.78          9.368         2913.14       2630.47 
 23            5.6           6.57          9.122         2843.88       2543.65 
 24            5.29          6.35          8.86          2771.59       2454.51 
 25            4.96          6.11          8.582         2696.31       2363.27 
 26            4.61          5.85          8.286         2618.11       2270.14 
 27            4.24          5.58          7.971         2537.03       2175.35 
 28            3.85          5.29          7.637         2453.15       2079.15 
 29            3.43          4.97          7.281         2366.55       1981.76 
 30            2.99          4.64          6.903         2277.34       1883.45 
 31            2.52          4.28          6.501         2185.6        1784.48 
 32            2.02          3.9           6.073         2091.48       1685.1 
 33            1.49          3.49          5.616         1995.08       1585.6 
 34            0.93          3.05          5.13          1896.57       1486.23 
 35            0.33          2.58          4.609         1796.1        1387.27 
 36           -0.3           2.07          4.053         1693.84       1289.01 
 37           -0.99          1.52          3.455         1589.97       1191.72 
 38           -1.72          0.92          2.812         1484.71       1095.67 
 39           -2.5           0.28          2.118         1378.25       1001.14 
 40           -3.34         -0.43          1.365         1270.84       908.402 
 41           -4.26         -1.2           0.546         1162.72       817.727 
 42           -5.25         -2.05         -0.352         1054.14       729.38 
 43           -6.34         -3            -1.343         945.4         643.624 
 44           -7.53         -4.06         -2.446         836.789       560.721 
 45           -8.87         -5.26         -3.688         728.648       480.938 
 46           -10.37        -6.64         -5.107         621.359       404.56 
 47           -12.09        -8.27         -6.759         515.395       331.91 
 48           -14.1         -10.22        -8.731         411.41        263.416 
 49           -16.5         -12.67        -11.163        310.514       199.761 
 50           -19.44        -15.85        -14.274        215.248       142.377 
 51           -22.94        -19.96        -18.189        134.087       95.1696 
 52           -25.64        -22.46        -20.751        100.617       69.7606 
 53           -24.48        -19.22        -18.088        146.012       79.7382 
 54           -21.62        -15.53        -14.571        223.454       110.744 
 55           -19.2         -12.77        -11.881        306.852       146.308 
 56           -17.36        -10.69        -9.843         389.94        180.85 
 57           -15.96        -9.05         -8.248         470.697       212.611 
 58           -14.87        -7.73         -6.963         548.2         240.941 
 59           -14.02        -6.63         -5.907         621.898       265.59 
 60           -13.37        -5.71         -5.026         691.405       286.476 
 61           -12.86        -4.93         -4.285         756.424       303.611 
 62           -12.49        -4.27         -3.658         816.71        317.065 
